# temp  A       B        C
20      21.7    21.7     0
50      23.3    22.6     0.7
75      23.9    23.1     1.3
100     24.3    23.4     1.9
125     24.7    23.7     2.5
150     25.2    23.9     3.1
175     25.7    24.2     3.7
200     26.4    24.4     4.4
225     27.0    24.7     5.1
250     27.5    25.0     5.7
275     27.7    25.2     6.4
300     27.6    25.5     7.1
325     27.1    25.6     7.8
